Counts	Number
0	231228.75342899794
1	208899.95446999624
2	141943.59198623177
3	91334.76114500432
4	59663.57030281341
5	40450.05389220172
6	28578.69716683974
7	20986.22937829745
8	15942.502669229685
9	12467.669324078952
10	9993.013192761737
11	8177.821364731472
12	6811.303752975285
13	5759.056294374839
14	4932.906477787603
15	4273.372929328532
16	3739.2080486107748
17	3301.057188229345
18	2937.5501588178213
19	2632.8335765688516
20	2374.960657471952
21	2154.803373602393
22	1965.2979928723596
23	1800.9148962780193
24	1657.2841785764588
25	1530.9292197231293
26	1419.072950101424
27	1319.4913859487324
28	1230.397722881312
29	1150.347495402091
30	1078.1603782034738
31	1012.8569936436242
32	953.6099554674781
33	899.7080574326261
34	850.5317504247612
35	805.5374155403107
36	764.2476812682519
37	726.2452371447816
38	691.1681116036922
39	658.705069451301
40	628.5904593570122
41	600.5984011211442
42	574.5365724688404
43	550.2400344826859
44	527.5655509426095
45	506.38675520078084
46	486.59035434440807
47	468.0733927384131
48	450.74145010571834
49	434.50755835854676
50	419.29158441192146
51	405.01983895816636
52	391.6247226227754
53	379.04428939464856
54	367.22167666968977
55	356.1044155351461
56	345.6436738015019
57	335.7935107802719
58	326.5102195580843
59	317.7518259913318
60	309.477782165383
61	301.64886967782195
62	294.22729590765937
63	287.1769437200113
64	280.4637186843482
65	274.0559288036996
66	267.92463426062125
67	262.04391230319277
68	256.3909982988825
69	250.94628273410447
70	245.69316313973582
71	240.61776835718342
72	235.70858529694104
73	230.9560291847122
74	226.35199776073935
75	221.88945058212602
76	217.56204388627356
77	213.3638442471658
78	209.28912934105472
79	205.33227610901724
80	201.4877256284722
81	197.75000759885845
82	194.11380558650208
83	190.57404233520433
84	187.12596838930614
85	183.76524041030692
86	180.48798066725476
87	177.2908144367433
88	174.1708851160376
89	171.12585001482654
90	168.15386090952734
91	165.25353384076
92	162.4239103971386
93	159.66441384576703
94	156.97479931488445
95	154.35509819396572
96	151.80555555957739
97	149.32656012287643
98	146.91856653685142
99	144.5820122230256
100	142.3172310579862
101	140.12436852390658
102	138.0033034516911
103	135.953581638223
104	133.97436612678746
105	132.0644080447487
106	130.22203993915434
107	128.44519216182962
108	126.73142944063409
109	125.07800496384893
110	123.48192625342044
111	121.94002678772318
112	120.4490379599493
113	119.00565495943285
114	117.6065928266477
115	116.24862912579232
116	114.9286321609829
117	113.6435749280107
118	112.39053689238786
119	111.16669634494602
120	109.96931770567176
121	108.795737349264
122	107.6433524702255
123	106.50961626952822
124	105.39204186039895
125	104.28821674249852
126	103.19582746983593
127	102.11269428980277
128	101.03681319311949
129	99.96640326017193
130	98.8999554166737
131	97.83627940949326
132	96.774545811925
133	95.71431902728791
134	94.65557976760851
135	93.59873414586457
136	92.54460871885892
137	91.49443103973275
138	90.44979604236627
139	89.41261954742781
140	88.38508077780291
141	87.369555869163
142	86.36854534422592
143	85.3845981594701
144	84.42023499012876
145	83.47787390323549
146	82.55976045597849
147	81.66790471718534
148	80.80402691756919
149	79.96951306650399
150	79.16538151714526
151	78.39226108140323
152	77.65038056970403
153	76.93956971764295
154	76.25927041995907
155	75.60855803040415
156	74.9861708084069
157	74.39054676128214
158	73.81986620532355
159	73.27209863262331
160	72.74505234679889
161	72.2364255699404
162	71.74385753538125
163	71.26497829554549
164	70.79745632753335
165	70.33904274378521
166	69.88761135653168
167	69.44119404600595
168	68.99801071019826
169	68.55649364942
170	68.11530601307341
171	67.67335427277628
172	67.22979492199481
173	66.78403512046363
174	66.33572807279059
175	65.88476298558932
176	65.431250428076
177	64.97550318197592
178	64.51801353847125
179	64.05942719573174
180	63.600514766548116
181	63.142141460616195
182	62.68523554240679
183	62.23075640249742
184	61.779663047601694
185	61.33288356478044
186	60.89128642716981
187	60.45565428391634
188	60.02666092710182
189	59.60485177992927
190	59.19062881161332
191	58.78423975577631
192	58.3857723237907
193	57.99515328366163
194	57.612152566799416
195	57.23639210018156
196	56.86735923780064
197	56.50442421006076
198	56.146861164898766
199	55.793872100338675
200	55.44461282727478
201	55.098220327618314
202	54.75384046614659
203	54.41065529060002
204	54.067909022805495
205	53.72493191224615
206	53.381161274417344
207	53.0361590039176
208	52.6896251180442
209	52.34140692250586
210	51.99150354617012
211	51.640065853941806
212	51.287391673426356
213	50.93391673276819
214	50.580201502394054
215	50.22691446582725
216	49.87481253450205
217	49.52471900471022
218	49.17749995737606
219	48.834039786164254
220	48.49521653481524
221	48.16187780917983
222	47.83481802459211
223	47.514757363419434
224	47.202323319739335
225	46.89803492371325
226	46.60229030322238
227	46.315357623880956
228	46.03736968394164
229	45.76832207221142
230	45.50807492896423
231	45.256358070688016
232	45.01277929864179
233	44.77683547180599
234	44.54792607403385
235	44.325368729656994
236	44.10841631226525
237	43.896275000387625
238	43.68812294833626
239	43.48312900269943
240	43.280470947177335
241	43.07935291576883
242	42.87902158670458
243	42.67878065384775
244	42.478003454978506
245	42.2761434495594
246	42.0727423397272
247	41.86743579300651
248	41.659956686730396
249	41.45013587909134
250	41.23790065493279
251	41.023270952397176
252	40.80635352802405
253	40.58733436634108
254	40.36646952653375
255	40.144074789014134
256	39.92051438689676
257	39.696189085331646
258	39.471524090652885
259	39.24695694997701
260	39.022925760958266
261	38.79985807343231
262	38.5781606422252
263	38.358210204906996
264	38.14034561304979
265	37.924861275651864
266	37.712002128925704
267	37.501960132922605
268	37.29487229520149
269	37.09082023863381
270	36.889831188504516
271	36.691880321645826
272	36.496894300449206
273	36.304755915149876
274	36.115309546501315
275	35.92836742828188
276	35.74371629544159
277	35.561124465235146
278	35.38034893786813
279	35.2011424590802
280	35.023260358523714
281	34.846466948590056
282	34.670541365440556
283	34.49528275796041
284	34.320514660261175
285	34.14608857328503
286	33.97188657267881
287	33.79782304246027
288	33.62384547360897
289	33.449934339490504
290	33.27610210968123
291	33.10239151008129
292	32.92887303026113
293	32.75564183438738
294	32.58281419197003
295	32.41052347347614
296	32.238915902791604
297	32.06814621986745
298	31.898373251685225
299	31.729755611634467
300	31.562447643439867
301	31.396595630958192
302	31.23233442024287
303	31.069784507273457
304	30.909049672785542
305	30.75021515621104
306	30.59334642388426
307	30.438488515172953
308	30.2856660016859
309	30.13488347933669
310	29.986126571194465
311	29.839363402887052
312	29.694546467314037
313	29.551614840269462
314	29.410496609723296
315	29.27111152424356
316	29.133373723443093
317	28.997194501795637
318	28.862484989483637
319	28.72915877168183
320	28.59713425857393
321	28.46633692969012
322	28.336701202889916
323	28.20817209282198
324	28.080706466727023
325	27.954274030248573
326	27.8288579465015
327	27.70445508390798
328	27.581076024466473
329	27.458744684886657
330	27.337497690927
331	27.217383483537446
332	27.098461225091317
333	26.980799486412167
334	26.86447477906165
335	26.749569940002214
336	26.636172484216377
337	26.524372789513112
338	26.41426233198446
339	26.30593186059485
340	26.199469581687634
341	26.094959399264745
342	25.992479160355114
343	25.89209903912411
344	25.793879945115833
345	25.697872044296275
346	25.604113415847088
347	25.512628825198814
348	25.423428623882597
349	25.336507839546694
350	25.251845388395896
351	25.169403490521688
352	25.089127301895516
353	25.01094468561567
354	24.934766237577826
355	24.860485526993237
356	24.787979540208163
357	24.717109383267513
358	24.647721171215103
359	24.57964716500861
360	24.512707140586844
361	24.446709934049654
362	24.38145518625765
363	24.316735313882624
364	24.25233752299012
365	24.188046083671654
366	24.123644603931545
367	24.058918398793267
368	23.993656922645865
369	23.927656150330197
370	23.86072095986853
371	23.79266738753587
372	23.723324827484287
373	23.65253804602518
374	23.580169003079416
375	23.506098519422284
376	23.430227620167834
377	23.352478697186832
378	23.272796340941827
379	23.191147908552484
380	23.107523774288413
381	23.021937303766034
382	22.934424501111277
383	22.84504338887384
384	22.753873101774186
385	22.661012731049798
386	22.566579936035694
387	22.47070931455729
388	22.373550645030356
389	22.275266933616564
390	22.17603236992965
391	22.076030172401488
392	21.975450424115802
393	21.874487839099334
394	21.773339586341557
395	21.672203134682473
396	21.571274172346513
397	21.470744633822456
398	21.37080083615732
399	21.271621749009874
400	21.173377433994563
401	21.076227642930995
402	20.980320596159917
403	20.88579191448548
404	20.792763797262488
405	20.70134428711198
406	20.6116268125577
407	20.523689829907152
408	20.43759666797469
409	20.353395512652913
410	20.271119523099568
411	20.190787121976108
412	20.11240234067612
413	20.03595533914497
414	19.961422962594906
415	19.88876940990844
416	19.81794696419958
417	19.74889678383009
418	19.681549729859274
419	19.61582725060847
420	19.55164227366299
421	19.488900159795573
422	19.427499605308878
423	19.367333642154744
424	19.30829057641345
425	19.250254956711057
426	19.193108534967674
427	19.136731247693767
428	19.08100214114139
429	19.025800327121708
430	18.971005921662968
431	18.91650094380272
432	18.862170231036625
433	18.807902299269323
434	18.753590191986074
435	18.699132309605147
436	18.64443317274644
437	18.589404179769865
438	18.53396429407759
439	18.478040692430252
440	18.4215693337015
441	18.364495502329675
442	18.306774232233934
443	18.248370712658566
444	18.189260561150128
445	18.12943002728407
446	18.068876120181393
447	18.007606615882636
448	17.945640000749997
449	17.883005269005846
450	17.819741672088618
451	17.75589831742457
452	17.69153370568317
453	17.62671514654123
454	17.561518110458856
455	17.496025459535073
456	17.43032661103268
457	17.36451663432242
458	17.298695267083488
459	17.232965886390435
460	17.1674344203767
461	17.102208243392592
462	17.0373950059527
463	16.97310150716879
464	16.90943251598407
465	16.84648962932541
466	16.784370155375154
467	16.72316601269108
468	16.662962690592863
469	16.603838281987798
470	16.54586254536679
471	16.4890960955922
472	16.433589643855658
473	16.379383368875153
474	16.326506369229712
475	16.274976232409564
476	16.22479875237522
477	16.175967706936152
478	16.12846484193233
479	16.08225989744959
480	16.037310833082262
481	15.993564138108024
482	15.950955271459797
483	15.90940923511781
484	15.868841260920677
485	15.829157586177917
486	15.790256353259256
487	15.752028598503522
488	15.714359309870447
489	15.677128583077694
490	15.640212816926706
491	15.603485955866073
492	15.56682079043566
493	15.530090265615739
494	15.493168788908395
495	15.455933556637842
496	15.418265844468259
497	15.380052259124687
498	15.341185966204113
499	15.301567828631313
500	15.2611074914323
501	15.219724382668412
502	15.177348599830534
503	15.133921701784057
504	15.089397379387012
505	15.04374202510067
506	14.99693511956955
507	14.948969544429591
508	14.899851717624957
509	14.84960159337889
510	14.798252529822411
511	14.74585102190785
512	14.692456266414796
513	14.63813964264865
514	14.5829840218574
515	14.527082981536608
516	14.470539904077144
517	14.413466974868664
518	14.355984087583908
519	14.298217683750716
520	14.240299504323973
521	14.182365320269186
522	14.124553592836024
523	14.067004147567918
524	14.009856811882072
525	13.953250068816931
526	13.8973197247214
527	13.84219763232306
528	13.78801043697928
529	13.734878381808368
530	13.682914223371107
531	13.63222217412293
532	13.582896980936672
533	13.535023082618142
534	13.488673898340332
535	13.443911193086844
536	13.400784609964083
537	13.359331276807902
538	13.31957558470728
539	13.281529059193154
540	13.245190357929737
541	13.21054542199976
542	13.177567700171796
543	13.14621853274372
544	13.116447606088428
545	13.08819354043255
546	13.061384552618888
547	13.03593921762371
548	13.011767298349527
549	12.988770649257862
550	12.96684416853428
551	12.945876817046699
552	12.925752651056847
553	12.906351897215785
554	12.887552025893802
555	12.869228849838777
556	12.85125759716668
557	12.833513984682403
558	12.815875244451334
559	12.79822114388796
560	12.780434935523779
561	12.762404271950565
562	12.744022056381004
563	12.725187218068728
564	12.705805455928584
565	12.68578985363417
566	12.665061446908977
567	12.643549710182718
568	12.621192953053104
569	12.597938623804932
570	12.573743540064067
571	12.548574013105199
572	12.522405922569735
573	12.49522466871505
574	12.467025077856661
575	12.437811197049154
576	12.407596051644772
577	12.376401303163302
578	12.344256860216996
579	12.311200424490234
580	12.277276984622906
581	12.24253825389836
582	12.207042092167853
583	12.170851856887975
584	12.134035751195013
585	12.096666136965608
586	12.058818844909693
587	12.020572464071572
588	11.982007628479659
589	11.94320631128179
590	11.904251135003339
591	11.865224678596466
592	11.826208817380287
593	11.78728409240992
594	11.74852910155862
595	11.71001991542476
596	11.671829565623936
597	11.634027524127287
598	11.596679280344935
599	11.559845923025103
600	11.523583801003314
601	11.487944206136113
602	11.452973136044044
603	11.418711088734831
604	11.385192928021274
605	11.352447767405545
606	11.32049895130941
607	11.289364038140945
608	11.259054876187076
609	11.229577687053915
610	11.20093321623573
611	11.173116916427821
612	11.146119164595124
613	11.119925523827986
614	11.09451702565855
615	11.069870484809396
616	11.045958843774592
617	11.022751515009762
618	11.000214764484213
619	10.978312092621364
620	10.957004626746963
621	10.936251514730703
622	10.91601032115242
623	10.89623741975974
624	10.876888378735417
625	10.857918329161095
626	10.839282331360044
627	10.82093572105695
628	10.802834420294701
629	10.784935265051727
630	10.767196260705797
631	10.749576858166638
632	10.732038176419312
633	10.714543203289628
634	10.697056979991496
635	10.679546739212597
636	10.661982036713633
637	10.644334834414481
638	10.626579575438818
639	10.60869322464158
640	10.590655273417669
641	10.572447749696366
642	10.554055177843578
643	10.535464529819187
644	10.516665169339984
645	10.497648759132998
646	10.478409166546253
647	10.458942358514474
648	10.439246274618597
649	10.419320715676227
650	10.399167204817006
651	10.378788847473718
652	10.358190202991404
653	10.337377145346998
654	10.316356726753508
655	10.295137047972993
656	10.273727132974617
657	10.252136799480228
658	10.230376551448362
659	10.208457464269435
660	10.186391091855928
661	10.164189363800398
662	10.141864508431343
663	10.119428972022439
664	10.096895349430842
665	10.074276325781973
666	10.051584613468904
667	10.028832921450357
668	10.00603389519754
669	9.983200087555801
670	9.960343923379494
671	9.937477676964807
672	9.914613431296347
673	9.891763077360032
674	9.868938262509477
675	9.846150386555886
676	9.823410569809374
677	9.800729635123778
678	9.778118070172992
679	9.755586014121873
680	9.733143218088292
681	9.710799011222738
682	9.688562275552712
683	9.666441397910045
684	9.644444234188128
685	9.622578069108881
686	9.600849571862861
687	9.579264741374566
688	9.557828872991559
689	9.536546505738125
690	9.515421377654194
691	9.494456370990324
692	9.473653482344465
693	9.453013773012374
694	9.432537329200745
695	9.412223232761807
696	9.392069524506129
697	9.372073190453008
698	9.352230131153982
699	9.33253515634422
700	9.312981982452142
701	9.293563230288932
702	9.274270441806891
703	9.255094098874618
704	9.236023647639776
705	9.217047545856145
706	9.198153294486206
707	9.179327514809257
708	9.160555993600454
709	9.14182376590088
710	9.123115196408076
711	9.10441406555865
712	9.085703671472569
713	9.066966925929773
714	9.048186473378907
715	9.029344798347822
716	9.010424347958361
717	8.991407657004515
718	8.972277468418813
719	8.953016869116688
720	8.933609407777832
721	8.9140392343018
722	8.894291219185359
723	8.874351079968857
724	8.854205503263833
725	8.833842260333109
726	8.813250319363087
727	8.7924199534348
728	8.771342827919922
729	8.75001210434333
730	8.728422511725249
731	8.706570422553666
732	8.68445390718803
733	8.662072790491054
734	8.639428685792748
735	8.616525021006067
736	8.593367061477904
737	8.569961894241821
738	8.54631843172367
739	8.522447383635608
740	8.498361215282685
741	8.474074109218805
742	8.449601890837641
743	8.424961968737849
744	8.400173234017087
745	8.375255981054883
746	8.350231790431428
747	8.325123418862644
748	8.29995466759079
749	8.274750258278978
750	8.249535687221243
751	8.22433708307879
752	8.199181050821114
753	8.174094525003968
754	8.149104602838941
755	8.12423838596893
756	8.099522824325838
757	8.074984553760133
758	8.05064973248274
759	8.026543893409087
760	8.002691788099852
761	7.97911723573743
762	7.955842984686097
763	7.932890583839714
764	7.910280250871288
765	7.888030753228308
766	7.8661593090689355
767	7.844681480429055
768	7.823611096123654
769	7.802960174695253
770	7.782738865399294
771	7.762955400357661
772	7.743616059179877
773	7.724725145437659
774	7.706284986849403
775	7.688295935803905
776	7.670756397195447
777	7.653662854693368
778	7.637009920328729
779	7.620790402451224
780	7.604995371158692
781	7.589614249133718
782	7.5746349058758256
783	7.560043764373318
784	7.545825921983025
785	7.531965275773741
786	7.518444654892327
787	7.50524596239322
788	7.492350326238947
789	7.479738239968701
790	7.467389731972236
791	7.455284508009839
792	7.443402117154846
793	7.431722105868444
794	7.42022417545894
795	7.408888327786635
796	7.397695019582153
797	7.3866252982200775
798	7.37566094710507
799	7.364784599083515
800	7.353979864169773
801	7.343231437036196
802	7.33252519288405
803	7.321848270068308
804	7.311189154138952
805	7.3005377286000845
806	7.289885329494938
807	7.279224773666335
808	7.268550387707375
809	7.257858004447598
810	7.247144966042546
811	7.236410096596783
812	7.225653669216972
813	7.214877365353787
814	7.20408420766452
815	7.193278494869281
816	7.182465723368036
817	7.17165249068896
818	7.160846396841175
819	7.150055943720041
820	7.139290413672751
821	7.128559755926477
822	7.117874456255036
823	7.107245417720605
824	7.0966838296221875
825	7.086201033415306
826	7.0758084016724885
827	7.065517209760835
828	7.055338508045087
829	7.045283008034722
830	7.035360962106369
831	7.025582059130851
832	7.015955326153117
833	7.006489025489749
834	6.997190574913586
835	6.9880664718327505
836	6.979122226037315
837	6.970362298129279
838	6.961790056884013
839	6.95340773941182
840	6.945216424723465
841	6.937216014948237
842	6.929405232924761
843	6.921781618933388
844	6.9143415464251445
845	6.907080240170493
846	6.899991808430855
847	6.893069274921813
848	6.886304627658091
849	6.879688866355865
850	6.873212062177661
851	6.866863419496277
852	6.860631334204927
853	6.854503476650589
854	6.848466856110929
855	6.842507900523846
856	6.836612532431889
857	6.830766244525501
858	6.824954190892232
859	6.819161247286389
860	6.813372111488658
861	6.807571364593541
862	6.801743556391905
863	6.795873276358073
864	6.789945231348829
865	6.783944309162902
866	6.777855653066361
867	6.771664728890896
868	6.765357378300659
869	6.75891988731246
870	6.752339042370235
871	6.745602178708346
872	6.738697239845881
873	6.731612815983788
874	6.724338196672379
875	6.7168634087121255
876	6.709179255801303
877	6.7012773544593776
878	6.693150170144876
879	6.684791041102844
880	6.6761942110102455
881	6.6673548508985565
882	6.658269080478427
883	6.648933989578012
884	6.639347648018236
885	6.629509124006846
886	6.619418488505691
887	6.609076822518088
888	6.598486218678022
889	6.587649785496605
890	6.576571634941309
891	6.565256876318467
892	6.553711608605816
893	6.541942898920904
894	6.529958765403929
895	6.517768151441158
896	6.505380900321461
897	6.49280771587637
